d_A,Intensity
0.05318052,0.418177
0.059183683,0.14383772
0.06518684,0.09915131
0.07119001,0.30085695
0.07719317,0.1602523
0.083196335,0.113572985
0.0891995,0.22857982
0.09520266,0.16385132
0.101205826,0.11966467
0.10720899,0.13741204
0.113212146,0.16259861
0.11921531,0.09326583
0.12521848,0.108840525
0.13122164,0.15167606
0.13722481,0.096211165
0.14322796,0.08736113
0.14923112,0.10060373
0.15523429,0.013582945
0.16123745,0.08352488
0.16724062,0.02944374
0.17324378,-0.015189916
0.17924695,-0.013231009
0.1852501,0.0016576648
0.19125327,-0.012374729
0.19725643,-0.04738888
0.20325959,-0.0528875
0.20926276,0.024018079
0.21526591,-0.011654198
0.22126909,-0.0031417012
0.22727224,-0.0103337765
0.23327541,-0.0023706555
0.23927857,0.037593096
0.24528174,0.029626459
0.2512849,0.12688687
0.25728807,0.10339254
0.2632912,0.031298846
0.26929438,0.11287391
0.27529755,0.07104036
0.28130072,0.0831303
0.28730386,0.08441955
0.29330704,0.1306208
0.2993102,0.08842233
0.30531338,0.07267496
0.31131652,0.122917116
0.3173197,0.10703635
0.32332286,0.092175245
0.329326,0.1240122
0.33532917,0.090954274
0.34133235,0.07561761
0.34733552,0.13604528
0.35333866,0.07379401
0.35934183,0.11035749
0.365345,0.08785027
0.37134814,0.066571474
0.3773513,0.04800722
0.38335449,0.08229193
0.38935766,0.071133405
0.3953608,0.07984334
0.40136397,0.047838867
0.40736714,0.10053396
0.4133703,0.17321938
0.41937345,0.06675708
0.42537662,0.06347948
0.4313798,0.23207355
0.43738294,0.14080864
0.4433861,0.16797692
0.44938928,0.41259122
0.45539245,0.45622662
0.4613956,0.3172274
0.46739876,0.48531073
0.47340193,0.65603244
0.47940508,0.5734363
0.48540825,0.48495615
0.49141142,1.0650318
0.4974146,0.7496122
0.50341773,0.7341559
0.50942093,1.2187297
0.5154241,1.1380945
0.5214272,0.8592551
0.5274304,1.1552123
0.53343356,1.6493444
0.5394367,1.145272
0.5454399,1.0235429
0.55144304,1.9626553
0.5574462,1.4485941
0.5634494,1.2560294
0.5694525,2.0106182
0.5754557,1.7402554
0.58145887,1.544101
0.587462,2.057911
0.5934652,2.3510647
0.59946835,1.8082228
0.6054715,1.7651379
0.6114747,2.9591544
0.61747783,2.4346566
0.623481,2.0924835
0.6294842,3.313892
0.6354873,2.966012
0.6414905,2.2920895
0.64749366,3.0968146
0.6534968,3.8199475
0.6595,2.9623988
0.66550314,2.7750566
0.6715063,5.198971
0.6775095,3.5405116
0.6835126,2.8093557
0.68951577,3.7331834
0.695519,3.4939604
0.7015221,3.003905
0.70752525,3.5409346
0.71352845,3.331221
0.7195316,3.2398756
0.7255348,3.572028
0.73153794,5.059985
0.7375411,5.635883
0.7435443,5.2446895
0.7495474,9.089044
0.75555056,9.157605
0.76155376,6.266997
0.7675569,7.213635
0.77356005,5.680503
0.77956325,4.065802
0.7855664,3.7347567
0.7915696,3.8929088
0.79757273,4.7177944
0.8035759,4.6385174
0.8095791,7.303175
0.8155822,5.398703
0.82158536,4.630444
0.82758856,4.217944
0.8335917,3.5434682
0.83959484,3.7989104
0.84559804,3.4527562
0.8516012,5.184527
0.8576044,4.4032454
0.8636075,4.7539186
0.86961067,8.257702
0.87561387,10.095844
0.881617,11.776132
0.88762015,15.024909
0.89362335,16.256268
0.8996265,11.499988
0.90562963,8.579161
0.91163284,8.306944
0.917636,4.462158
0.9236391,4.2290225
0.9296423,4.8101654
0.93564546,4.7445683
0.94164866,3.5499818
0.9476518,5.159162
0.95365494,5.005999
0.95965815,5.4174623
0.9656613,5.9124694
0.9716644,9.363026
0.9776676,10.10064
0.9836708,13.686792
0.9896739,17.277975
0.9956771,16.081377
1.0016803,12.680984
1.0076834,13.576557
1.0136865,10.726644
1.0196898,5.4614606
1.0256929,4.3620505
1.0316961,4.707398
1.0376992,4.063671
1.0437024,3.0933814
1.0497056,4.2451463
1.0557088,3.5466745
1.0617119,3.4963691
1.067715,3.9393146
1.0737182,3.714334
1.0797213,4.6861343
1.0857246,4.968186
1.0917277,6.345941
1.0977309,6.275317
1.103734,7.7189417
1.1097372,9.2572
1.1157404,14.068252
1.1217436,18.67246
1.1277467,23.847252
1.1337498,31.86232
1.139753,36.394196
1.1457561,33.74732
1.1517594,38.523766
1.1577625,32.798527
1.1637657,28.972694
1.1697688,26.29908
1.175772,14.033218
1.1817752,8.081117
1.1877784,6.894592
1.1937815,6.5220447
1.1997846,6.780196
1.2057878,5.6051083
1.2117909,6.1720366
1.2177942,5.2001987
1.2237973,4.081701
1.2298005,4.8028092
1.2358036,3.4956288
1.2418067,4.3989396
1.24781,4.081953
1.2538131,4.1625347
1.2598163,3.657391
1.2658194,4.914525
1.2718226,3.70568
1.2778257,4.3639054
1.283829,3.9367862
1.2898321,4.708792
1.2958353,4.531275
1.3018384,4.701809
1.3078415,4.705433
1.3138447,4.9144335
1.319848,4.2755833
1.3258511,5.629578
1.3318542,4.79211
1.3378574,6.3405643
1.3438605,5.875868
1.3498638,8.250295
1.3558669,9.453798
1.36187,9.655383
1.3678732,14.899805
1.3738763,16.592457
1.3798795,22.740488
1.3858827,25.148594
1.3918859,35.688896
1.397889,33.68332
1.4038922,31.939016
1.4098953,40.79159
1.4158986,29.50943
1.4219017,32.262897
1.4279048,31.04026
1.433908,21.6889
1.4399111,13.038641
1.4459143,7.7161684
1.4519175,6.935539
1.4579207,5.625828
1.4639238,5.0141687
1.469927,6.329667
1.4759301,4.7573905
1.4819334,5.57256
1.4879365,5.5225253
1.4939396,5.1318727
1.4999428,5.333447
1.5059459,5.0590706
1.5119491,4.174842
1.5179523,4.6775365
1.5239555,4.9143443
1.5299586,4.7095494
1.5359617,5.2039814
1.5419649,4.0397787
1.5479681,4.7685966
1.5539713,4.8246565
1.5599744,4.2116265
1.5659776,4.821998
1.5719807,4.5032973
1.5779839,4.7871356
1.5839871,4.358888
1.5899903,4.5627766
1.5959934,4.236118
1.6019965,4.2364345
1.6079997,5.09635
1.614003,4.300854
1.6200061,4.3285704
1.6260092,4.6691675
1.6320124,4.1943464
1.6380155,3.9469297
1.6440187,4.257449
1.6500219,4.6043744
1.656025,4.4081697
1.6620282,3.9856706
1.6680313,4.7472396
1.6740345,4.003553
1.6800377,4.7290535
1.6860409,4.9903345
1.692044,4.1286736
1.6980472,3.5973141
1.7040503,4.166258
1.7100534,4.844872
1.7160567,4.2443314
1.7220598,3.6423266
1.728063,4.4057775
1.7340661,3.4220154
1.7400693,4.9874372
1.7460725,4.3157616
1.7520757,3.696135
1.7580788,3.3012927
1.764082,4.8215528
1.7700851,4.1339746
1.7760882,3.7613175
1.7820915,2.9472294
1.7880946,6.5955706
1.7940978,4.0031223
1.8001009,2.7682955
1.8061041,4.7288876
1.8121072,5.3342752
1.8181105,3.933466
1.8241136,3.2420578
1.8301167,6.7378464
1.8361199,4.8332443
1.842123,3.8501487
1.8481263,6.241605
1.8541294,6.7197385
1.8601326,5.190558
1.8661357,4.4674163
1.8721389,11.246755
1.878142,5.8455653
1.8841453,5.627941
1.8901484,12.885788
1.8961515,10.312708
1.9021547,7.816285
1.9081578,18.597498
1.9141611,15.351785
1.9201642,18.557623
1.9261674,28.33338
1.9321705,31.10874
1.9381737,24.808905
1.9441768,48.214203
1.95018,54.722393
1.9561832,46.782635
1.9621863,59.47131
1.9681895,65.39066
1.9741926,67.83373
1.9801959,76.467255
1.986199,63.768555
1.9922022,64.722565
1.9982053,69.56984
2.0042086,59.761242
2.0102117,58.292553
2.0162148,48.18669
2.022218,45.08263
2.0282211,49.369854
2.0342243,37.74359
2.0402274,24.267578
2.0462306,24.781893
2.0522337,11.234445
2.0582368,9.311177
2.0642402,9.689295
2.0702434,7.469241
2.0762465,7.5947213
2.0822496,6.960639
2.0882528,5.9633093
2.094256,7.4098177
2.100259,6.3985605
2.1062622,5.967798
2.1122653,6.1643934
2.1182685,5.3172836
2.1242716,6.6985784
2.130275,5.919751
2.1362782,5.702794
2.1422813,6.5666685
2.1482844,6.522077
2.1542876,6.2280564
2.1602907,6.1056266
2.1662939,6.5791645
2.172297,6.8056087
2.1783001,4.9210663
2.1843033,7.127972
2.1903064,6.082745
2.1963098,6.032382
2.202313,6.15884
2.208316,6.265507
2.2143192,6.4959054
2.2203224,4.343942
2.2263255,6.7103176
2.2323287,6.1602163
2.2383318,5.7771015
2.244335,5.2132206
2.250338,6.619804
2.2563412,5.9705734
2.2623446,5.114298
2.2683477,5.3737674
2.274351,6.7033386
2.280354,5.120172
2.2863572,5.7949424
2.2923603,6.6312914
2.2983634,5.0621824
2.3043666,4.6037116
2.3103697,7.3819885
2.3163729,5.533691
2.322376,4.855088
2.3283794,6.3648243
2.3343825,5.2346964
2.3403857,6.245732
2.3463888,5.949297
2.352392,5.281672
2.358395,5.420835
2.3643982,6.136584
2.3704014,4.8893065
2.3764045,6.055123
2.3824077,5.2478356
2.3884108,5.5152135
2.3944142,5.7812266
2.4004173,4.543599
2.4064205,6.170007
2.4124236,5.059159
2.4184268,5.4184804
2.42443,5.2201953
2.430433,5.342291
2.4364362,5.330943
2.4424393,5.081498
2.4484425,5.522389
2.4544456,3.6746156
2.460449,5.682542
2.4664521,5.1647468
2.4724553,5.1673408
2.4784584,4.719099
2.4844615,5.3679314
2.4904647,4.871826
2.4964678,4.596728
2.502471,5.148161
2.508474,4.883956
2.5144773,4.692758
2.5204804,4.515823
2.5264838,5.509775
2.532487,3.4170077
2.53849,5.5106997
2.5444932,4.020138
2.5504963,5.483851
2.5564995,3.9667678
2.5625026,4.371865
2.5685058,4.917161
2.574509,4.453844
2.580512,4.122669
2.5865152,4.845036
2.5925183,4.179778
2.5985217,4.4802117
2.6045249,4.306289
2.610528,4.634598
2.6165311,3.7637482
2.6225343,4.615261
2.6285374,4.312779
2.6345406,4.735229
2.6405437,3.822535
2.6465468,4.3452773
2.65255,4.3955026
2.6585531,3.9914658
2.6645565,4.6395836
2.6705596,4.1563635
2.6765628,4.3716836
2.682566,4.316896
2.688569,4.2392097
2.6945722,3.940852
2.7005754,4.308967
2.7065785,4.502299
2.7125816,4.5016975
2.7185848,3.448555
2.724588,4.4996247
2.7305913,3.6838431
2.7365944,4.5438614
2.7425976,3.9642048
2.7486007,4.4334807
2.7546039,4.110892
2.760607,3.7897863
2.7666101,4.3088474
2.7726133,4.108066
2.7786164,3.8608015
2.7846196,4.5147347
2.7906227,3.8989964
2.796626,3.9121811
2.8026292,3.9138596
2.8086324,4.2040653
2.8146355,3.8751988
2.8206387,4.1185937
2.8266418,4.3231864
2.832645,4.2135735
2.838648,3.3141978
2.8446512,4.7362385
2.8506544,3.84915
2.8566575,3.95424
2.862661,4.369212
2.868664,4.427455
2.8746672,4.1826415
2.8806703,3.8915687
2.8866735,4.506286
2.8926766,4.092123
2.8986797,4.0462165
2.9046829,4.806929
2.910686,3.16958
2.9166892,4.382351
2.9226923,4.703092
2.9286957,3.8507116
2.9346988,4.2848825
2.940702,4.305215
2.946705,4.118768
2.9527082,4.4944525
2.9587114,3.6125488
2.9647145,4.845746
2.9707177,4.3686566
2.9767208,4.108118
2.982724,4.2395773
2.988727,4.1843615
2.9947305,3.8289735
3.0007336,4.437453
3.0067368,4.09463
3.01274,4.5166593
3.018743,3.928558
3.0247462,4.2400937
3.0307493,3.937148
3.0367525,4.114958
3.0427556,4.285537
3.0487587,4.6228223
3.054762,3.8082433
3.0607653,4.5142903
3.0667684,4.0068774
3.0727715,4.0877004
3.0787747,3.6889648
3.0847778,4.631549
3.090781,4.4032273
3.096784,3.7085295
3.1027873,4.1618514
3.1087904,3.9478173
3.1147935,3.9888206
3.1207967,4.4188557
3.1268,4.1555805
3.1328032,3.660103
3.1388063,4.219398
3.1448095,3.9289021
3.1508126,4.4224687
3.1568158,3.4972625
3.162819,4.24524
3.168822,4.2403316
3.1748252,4.071082
3.1808283,3.56742
3.1868315,3.9987302
3.1928349,3.7002769
3.198838,3.776319
3.2048411,3.8382092
3.2108443,3.9314344
3.2168474,3.2042625
3.2228506,4.4991503
3.2288537,3.837687
3.2348568,4.5902963
3.24086,3.993762
3.2468631,4.2536454
3.2528663,3.7550216
3.2588696,3.7827187
3.2648728,3.988093
3.270876,3.1742337
3.276879,3.5475543
3.2828822,3.3106556
3.2888854,3.849079
3.2948885,3.090533
3.3008916,3.513897
3.3068948,3.4245377
3.312898,3.1211836
3.318901,2.8840528
3.3249044,5.75805
3.3309076,3.9903364
3.3369107,3.9362147
3.3429139,3.603842
3.348917,3.4499846
3.3549201,3.2638423
3.3609233,3.4238253
3.3669264,3.5705888
3.3729296,2.8205514
3.3789327,3.264482
3.3849359,3.0817983
3.3909392,4.27765
3.3969424,3.703925
3.4029455,3.900548
3.4089487,3.4708335
3.4149518,3.7141185
3.420955,3.0760765
3.426958,3.5992417
3.4329612,2.6758347
3.4389644,3.778874
3.4449675,3.1097405
3.4509706,4.477485
3.456974,3.655086
3.4629772,3.8826742
3.4689803,3.5589676
3.4749835,2.7809856
3.4809866,3.4290395
3.4869897,3.2108796
3.4929929,3.5369124
3.498996,3.1142411
3.5049992,4.7211695
3.5110023,3.3650243
3.5170054,3.7260923
3.5230088,3.1738434
3.529012,3.587769
3.535015,3.163825
3.5410182,3.1371398
3.5470214,3.7517717
3.5530245,3.6639156
3.5590277,3.5700397
3.5650308,3.3327842
3.571034,3.447779
3.577037,2.9348512
3.5830402,3.1583815
3.5890436,2.9667594
3.5950468,4.1707616
3.60105,3.4998689
3.607053,3.0435984
3.6130562,3.0865402
3.6190593,3.2043245
3.6250625,3.089841
3.6310656,2.989935
3.6370687,3.6622598
3.643072,3.4219592
3.649075,3.0328546
3.6550782,2.9602828
3.6610816,3.1861022
3.6670847,2.4992087
3.6730878,3.104582
3.679091,3.6633074
3.685094,3.1151395
3.6910973,3.2406933
3.6971004,2.6221972
3.7031035,3.0461035
3.7091067,2.3291163
3.7151098,3.1328337
3.721113,3.100165
3.7271163,3.3864486
3.7331195,2.5357976
3.7391226,3.201021
3.7451258,2.737002
3.751129,2.768553
3.757132,2.9901595
3.7631352,2.9900289
3.7691383,2.9731488
3.7751415,2.69886
3.7811446,3.1034207
3.7871478,2.0473306
3.7931511,2.8943841
3.7991543,3.0383234
3.8051574,3.2923398
3.8111606,2.7507904
3.8171637,2.3337872
3.8231668,2.7147586
3.82917,2.3610554
3.8351731,3.45716
3.8411763,2.4649282
3.8471794,3.0494251
3.8531826,2.0898216
3.859186,2.7003388
3.865189,2.310182
3.8711922,3.6036353
3.8771954,2.462474
3.8831985,2.730955
3.8892016,2.2727962
3.8952048,2.0967577
3.901208,2.7385774
3.907211,3.2248392
3.9132142,2.612518
3.9192173,2.2771785
3.9252207,2.2415752
3.9312239,2.3748212
3.937227,2.612558
3.9432302,2.8260415
3.9492333,2.5932245
3.9552364,2.3491678
3.9612396,1.750872
3.9672427,2.3100111
3.9732459,2.8937612
3.979249,2.6972575
3.9852521,2.2911086
3.9912555,1.9675008
3.9972587,2.2362173
4.0032616,2.393719
4.009265,2.8940108
4.015268,2.1867335
4.021271,2.2801013
4.0272746,1.9430609
4.0332775,1.9765164
4.039281,2.6942945
4.045284,2.6090808
4.051287,2.1904905
4.05729,1.9043292
4.0632935,1.7638793
4.0692964,1.9899096
4.0752997,2.7057881
4.0813026,1.8949602
4.087306,2.0697174
4.0933094,1.4948314
4.0993123,1.4961209
4.1053157,3.044785
4.1113186,2.0234365
4.117322,1.5615809
4.123325,1.7535721
4.1293283,1.6085819
4.135331,2.2586465
4.1413345,1.9200177
4.1473374,1.8003893
4.153341,1.620685
4.159344,1.4801054
4.165347,2.274444
4.1713505,1.8168716
4.1773534,1.3417474
4.183357,1.7345523
4.1893597,1.3502415
4.195363,1.4735167
4.201366,2.1646986
4.2073693,1.510791
4.213372,1.5585833
4.2193756,1.4128076
4.225379,1.4358045
4.231382,1.7187287
4.2373853,1.6504402
4.243388,1.288892
4.2493916,1.536027
4.2553945,1.2520572
4.261398,2.3289375
4.2674007,1.3754177
4.273404,1.2695323
4.279407,1.4306213
4.2854104,0.92609715
4.291414,2.1777747
4.2974167,1.2977933
4.30342,1.3285993
4.309423,1.1713367
4.3154263,0.9739227
4.3214293,2.3305173
4.3274326,1.4198594
4.3334355,1.3003329
4.339439,0.86877763
4.345442,1.3271616
4.351445,1.4193137
4.3574486,1.4464295
4.3634515,1.4777119
4.369455,1.0657231
4.375458,1.338999
4.381461,1.1788561
4.387464,1.2774744
4.3934674,1.3901213
4.3994703,0.9934749
4.4054737,1.548306
4.4114766,1.2266569
4.41748,1.2985033
4.4234834,0.93791306
4.4294863,1.0150563
4.4354897,1.2070746
4.4414926,1.2393533
4.447496,1.2446057
4.453499,1.0142497
4.459502,0.916355
4.465505,1.184374
4.4715085,1.3532212
4.4775114,1.0219773
4.483515,0.7617588
4.489518,1.0785367
4.495521,1.3327384
4.5015244,1.1700271
4.5075274,0.84782857
4.5135307,1.1551205
4.5195336,0.9483673
4.525537,1.1070405
4.53154,1.0184788
4.5375433,1.1096275
4.543546,0.79375684
4.5495496,1.0084953
4.555553,0.9139407
4.561556,1.0013609
4.5675592,0.82664055
4.573562,0.84599745
4.5795655,0.9584981
4.5855684,0.92108655
4.591572,0.93575037
4.5975747,0.65719247
4.603578,0.96926427
4.609581,0.790074
4.6155844,0.77481794
4.6215878,0.7218213
4.6275907,0.65191174
4.633594,1.0737206
4.639597,0.671355
4.6456003,0.7778223
4.651603,0.6845429
4.6576066,0.8555465
4.6636095,0.61112237
4.669613,0.89575434
4.675616,0.66139597
4.681619,0.76612675
4.6876225,0.7866095
4.6936255,0.64833057
4.699629,0.6984786
4.7056317,0.4984312
4.711635,0.8202329
4.717638,0.6974389
4.7236414,0.73671067
4.7296443,0.6156479
4.7356477,0.46756962
4.7416506,0.83790976
4.747654,0.5312726
4.7536573,0.7002066
4.7596602,0.60763645
4.7656636,0.4906424
4.7716665,0.7372418
4.77767,0.62758964
4.783673,0.7411461
4.789676,0.43108627
4.795679,0.71256995
4.8016825,0.6511641
4.8076854,0.60955286
4.8136888,0.54179007
4.819692,0.62705636
4.825695,0.46590498
4.8316984,0.80025685
4.8377013,0.36968532
4.8437047,0.5352947
4.8497076,0.44546372
4.855711,0.490741
4.861714,0.37679112
4.8677173,0.9536343
4.87372,0.79276264
4.8797235,0.48531055
4.885727,0.62291074
4.89173,0.5030564
4.897733,0.34982353
4.903736,0.5022151
4.9097395,0.47935444
4.9157424,0.2984563
4.921746,0.6657491
4.9277487,0.8643087
4.933752,0.5812446
4.939755,0.5421573
4.9457583,0.4229844
4.9517617,0.44747105
4.9577646,0.39976323
4.963768,0.49208602
4.969771,0.7362018
4.9757743,0.4534725
4.981777,0.47796303
4.9877806,0.45785826
4.9937835,0.44708636
4.999787,0.2653165
5.0057898,0.95333385
5.011793,0.4519921
5.0177965,0.68541044
5.0237994,0.33912992
5.029803,0.34558225
5.0358057,0.39552572
5.041809,0.7371262
5.047812,0.45605844
5.0538154,0.40385684
5.0598183,0.38476786
5.0658216,0.45985374
5.0718246,0.401634
5.077828,0.4219493
5.0838313,0.63969433
5.089834,0.3759865
5.0958376,0.18948218
5.1018405,0.58848655
5.107844,0.39419448
5.113847,0.32034606
5.11985,0.69783735
5.125853,0.22092003
5.1318564,0.407187
5.1378593,0.5492513
5.1438627,0.43911862
5.149866,0.44271073
5.155869,0.20053393
5.1618724,0.3608952
5.1678753,0.612095
5.1738787,0.5630684
5.1798816,0.26012728
5.185885,0.26296598
5.191888,0.46206626
5.197891,0.5152314
5.203894,0.35396963
5.2098975,0.43421695
5.2159004,0.3679436
5.221904,0.41267166
5.227907,0.3672239
5.23391,0.16339162
5.2399135,0.6172824
5.2459164,0.4139345
5.2519197,0.16727361
5.2579226,0.20354265
5.263926,0.73214614
5.269929,0.21462321
5.2759323,0.33250648
5.281935,0.3057306
5.2879386,0.34186947
5.293942,0.51270926
5.299945,0.21338972
5.3059483,0.26525664
5.311951,0.49242854
5.3179545,0.31033456
5.3239574,0.21370476
5.329961,0.2912241
5.3359637,0.41413143
5.341967,0.2678453
5.34797,0.3086404
5.3539734,0.17044055
5.359977,0.59085697
5.3659797,0.48349288
5.371983,0.26147616
5.377986,0.27116802
5.3839893,0.40068647
5.389992,0.30122164
5.3959956,0.21064666
5.4019985,0.18376523
5.408002,0.30460247
5.414005,0.5056392
5.420008,0.266049
5.4260116,0.36268246
5.4320145,0.30189443
5.438018,0.21471989
5.4440207,0.22139889
5.450024,0.31156904
5.456027,0.40677088
5.4620304,0.31181446
5.4680333,0.37038317
5.4740367,0.17232567
5.4800396,0.25862962
5.486043,0.40181637
5.4920464,0.2943809
5.4980493,0.2344313
5.5040526,0.10160321
5.5100555,0.30093536
5.516059,0.34662345
5.522062,0.20658717
5.528065,0.40972552
5.534068,0.29091752
5.5400715,0.19049454
5.5460744,0.20486432
5.552078,0.2870706
5.558081,0.28101775
5.564084,0.23736092
5.5700874,0.31244203
5.5760903,0.2508635
5.5820937,0.098145366
5.5880966,0.3795232
5.5941,0.25384837
5.600103,0.12607682
5.6061063,0.40173402
5.612109,0.18921816
5.6181126,0.29781023
5.624116,0.24182427
5.630119,0.22818372
5.636122,0.23491797
5.642125,0.12662148
5.6481285,0.26949573
5.6541314,0.43057054
5.660135,0.25456646
5.6661377,0.29614577
5.672141,0.2100282
5.678144,0.06636357
5.6841474,0.20816949
5.6901507,0.39275327
5.6961536,0.3045896
5.702157,0.19002289
5.70816,0.12824464
5.7141633,0.14180166
5.720166,0.4228484
5.7261696,0.17167842
5.7321725,0.34751943
5.738176,0.12240434
5.744179,0.22098199
5.750182,0.3838317
5.7561855,0.15592709
5.7621884,0.07322371
5.768192,0.39590022
5.7741947,0.12953272
5.780198,0.14734247
5.786201,0.32074276
5.7922044,0.24594468
5.7982073,0.19713604
5.8042107,0.22784126
5.8102136,0.13897455
5.816217,0.19948554
5.8222203,0.06801328
5.828223,0.34985533
5.8342266,0.31460193
5.8402295,0.12888521
5.846233,0.13056523
5.852236,0.3445018
5.858239,0.2547903
5.864242,0.08626431
5.8702455,0.18247038
5.8762484,0.26674148
5.8822517,0.17416826
5.888255,0.19104618
5.894258,0.12755069
5.9002614,0.2688057
5.9062643,0.09504175
5.9122677,0.09565073
5.9182706,0.41976804
5.924274,0.16123351
5.930277,0.11196858
5.9362803,0.17567351
5.942283,0.20349002
5.9482865,0.28477982
5.95429,0.14144185
5.960293,0.11593127
5.966296,0.3454458
5.972299,0.19546485
5.9783025,0.14954317
5.9843054,0.28733107
5.990309,0.06862494
5.9963117,0.10770625
6.002315,0.38007057
6.008318,0.18338764
6.0143213,0.18324852
6.0203247,0.15174699
6.0263276,0.25062862
6.032331,0.20433128
6.038334,0.17755017
6.0443373,0.25324097
6.05034,0.15488237
6.0563436,0.17140165
6.0623465,0.14750004
6.06835,0.19984534
6.0743527,0.22599077
6.080356,0.11511776
6.0863595,0.21738586
6.0923624,0.17320967
6.098366,0.24109069
6.1043687,0.11705199
6.110372,0.07370439
6.116375,0.30672455
6.1223783,0.16732597
6.1283813,0.14580241
6.1343846,0.1633217
6.1403875,0.19346789
6.146391,0.16387591
6.1523943,0.15535736
6.158397,0.23161995
6.1644006,0.13002864
6.1704035,0.16345257
6.176407,0.22027352
6.18241,0.13390481
6.188413,0.20639515
6.194416,0.119957834
6.2004194,0.166612
6.2064223,0.12877563
6.2124257,0.27710262
6.218429,0.10056758
6.224432,0.25742865
6.2304354,0.07320869
6.2364383,0.20186865
6.2424417,0.13118911
6.2484446,0.15320906
6.254448,0.1390563
6.260451,0.22410163
6.266454,0.19353378
6.272457,0.22717834
6.2784605,0.15242085
6.284464,0.12752873
6.290467,0.26248443
6.29647,0.067175716
6.302473,0.15595967
6.3084764,0.20767301
6.3144794,0.11698499
6.3204827,0.20873699
6.3264856,0.20436561
6.332489,0.19225925
6.338492,0.09457791
6.3444953,0.19395238
6.3504987,0.21163428
6.3565016,0.16337532
6.362505,0.27995926
6.368508,0.20210171
6.3745112,0.1810877
6.380514,0.16726613
6.3865175,0.18116933
6.3925204,0.14585847
6.398524,0.15176448
6.4045267,0.09511578
6.41053,0.10789108
6.4165335,0.15076244
6.4225364,0.10177621
6.4285398,0.115180254
6.4345427,0.066058904
6.440546,0.11662412
6.446549,0.10549569
6.4525523,0.07233682
6.458555,0.07888675
6.4645586,0.051997185
6.4705615,0.07526782
6.476565,0.067724526
6.4825683,0.0653528
6.488571,0.07529512
6.4945745,0.055576116
6.5005774,0.09291473
6.506581,0.05600491
6.5125837,0.823713
6.518587,0.39009455
6.52459,0.27164385
6.5305934,0.20177051
6.5365963,0.143808
6.5425997,0.15841937
6.548603,0.14898482
6.554606,0.12194827
6.5606093,0.067072004
6.5666122,0.16806859
6.5726156,0.053116024
6.5786185,0.13419718
6.584622,0.053707033
6.590625,0.06053683
6.596628,0.11050972
6.602631,0.06045744
6.6086345,0.2463173
6.614638,0.14044774
6.6206408,0.16319638
6.626644,0.14870647
6.632647,0.14420915
6.6386504,0.12146044
6.6446533,0.14672187
6.6506567,0.13123807
6.6566596,0.15911573
6.662663,0.114102304
6.668666,0.04896331
6.6746693,0.12177944
6.6806726,0.05990547
6.6866755,0.23891237
6.692679,0.11180952
6.698682,0.18717116
6.704685,0.13058797
6.710688,0.18415436
6.7166915,0.028059721
6.7226944,0.19770792
6.728698,0.081216305
6.7347007,0.091992944
6.740704,0.124893904
6.7467074,0.08773947
6.7527103,0.22580159
6.7587137,0.059841245
6.7647166,0.22336572
6.77072,0.048851103
6.776723,0.14356741
6.7827263,0.047488272
6.788729,0.24200082
6.7947326,0.09269866
6.8007355,0.107286066
6.806739,0.0766387
6.812742,0.37132695
6.818745,0.12628618
6.8247485,0.050198108
6.8307514,0.16942555
6.836755,0.06506282
6.8427577,0.046854556
6.848761,0.23472711
6.854764,0.034287483
6.8607674,0.0938738
6.8667703,0.034188658
6.8727736,0.30053514
6.878777,0.07419735
6.88478,0.20455825
6.8907833,0.21025541
6.896786,0.04056713
6.9027896,0.13644364
6.9087925,0.05414796
6.914796,0.04637474
6.920799,0.20550233
6.926802,0.10477975
6.932805,0.23708442
6.9388084,0.049593657
6.944812,0.13813952
6.9508147,0.19807369
6.956818,0.07479572
6.962821,0.16214806
6.9688244,0.03789094
6.9748273,0.10406241
6.9808307,0.11907795
6.9868336,0.26325613
6.992837,0.16181192
6.99884,0.13793549
7.004843,0.0372743
7.0108466,0.08781421
7.0168495,0.20120513
7.022853,0.12128216
7.028856,0.12304586
7.034859,0.11104065
7.040862,0.08728254
7.0468655,0.12954375
7.0528684,0.045910686
7.0588717,0.12466663
7.0648746,0.073717624
7.070878,0.111313045
7.0768814,0.23064122
7.0828843,0.1495257
7.0888877,0.057376355
7.0948906,0.1344035
7.100894,0.051131725
7.106897,0.030659765
7.1129003,0.24618721
7.118903,0.10529661
7.1249065,0.137905
7.1309094,0.06338075
7.136913,0.05266574
7.142916,0.17520115
7.148919,0.043331653
7.1549225,0.20314366
7.1609254,0.026632786
7.166929,0.1538223
7.1729317,0.08769491
7.178935,0.12109965
7.184938,0.07077104
7.1909413,0.12843296
7.196944,0.11776301
7.2029476,0.050625086
7.208951,0.18822268
7.214954,0.24858314
7.2209573,0.065547496
7.22696,0.13967091
7.2329636,0.05508703
7.2389665,0.05698824
7.24497,0.059442997
7.2509727,0.044247568
7.256976,0.10775313
7.262979,0.28771916
7.2689824,0.10280299
7.2749853,0.111471325
7.2809887,0.049798757
7.286992,0.07692024
7.292995,0.021349698
7.2989984,0.19406325
7.3050013,0.0638901
7.3110046,0.18302897
7.3170075,0.058211714
7.323011,0.021049738
7.329014,0.13345623
7.335017,0.14160436
7.34102,0.09040645
7.3470235,0.13643119
7.353027,0.018885404
7.35903,0.09965053
7.365033,0.18312645
7.371036,0.21287432
7.3770394,0.048906893
7.3830423,0.10404402
7.3890457,0.11927369
7.3950486,0.09034708
7.401052,0.04091698
7.407055,0.113799095
7.4130583,0.13119158
7.4190617,0.04953584
7.4250646,0.19636226
7.431068,0.11631957
7.437071,0.05532989
7.443074,0.12838382
7.449077,0.031778425
7.4550805,0.049142838
7.4610834,0.13692075
7.467087,0.045734465
7.4730897,0.11811337
7.479093,0.040281206
7.4850965,0.10657108
7.4910994,0.042178065
7.4971027,0.19431612
